     1.000000    0.000000
     0.993591    0.000985
     0.982994    0.002654
     0.971107    0.004585
     0.957988    0.006789
     0.943939    0.009243
     0.929230    0.011926
     0.913967    0.014816
     0.898262    0.017873
     0.882253    0.021048
     0.866054    0.024289
     0.849764    0.027541
     0.833478    0.030759
     0.817254    0.033914
     0.801095    0.036984
     0.784945    0.039965
     0.768757    0.042870
     0.752519    0.045708
     0.736220    0.048488
     0.719857    0.051221
     0.703452    0.053912
     0.687037    0.056560
     0.670643    0.059159
     0.654309    0.061693
     0.638018    0.064139
     0.621690    0.066507
     0.605282    0.068815
     0.588787    0.071078
     0.572214    0.073314
     0.555607    0.075532
     0.539069    0.077726
     0.522666    0.079858
     0.506403    0.081906
     0.490301    0.083843
     0.474305    0.085645
     0.458326    0.087317
     0.442302    0.088867
     0.426192    0.090309
     0.409962    0.091662
     0.393622    0.092949
     0.377222    0.094178
     0.360805    0.095351
     0.344420    0.096462
     0.328126    0.097504
     0.311992    0.098460
     0.296074    0.099307
     0.280422    0.100021
     0.265075    0.100573
     0.250072    0.100936
     0.235449    0.101082
     0.221228    0.100980
     0.207411    0.100604
     0.193989    0.099935
     0.180955    0.098953
     0.168303    0.097644
     0.156025    0.095999
     0.144113    0.094010
     0.132569    0.091679
     0.121410    0.089015
     0.110658    0.086033
     0.100332    0.082754
     0.090468    0.079206
     0.081133    0.075443
     0.072398    0.071527
     0.064292    0.067510
     0.056794    0.063425
     0.049886    0.059303
     0.043592    0.055199
     0.037934    0.051182
     0.032905    0.047308
     0.028463    0.043611
     0.024529    0.040084
     0.021026    0.036707
     0.017905    0.033469
     0.015134    0.030371
     0.012682    0.027413
     0.010517    0.024596
     0.008609    0.021917
     0.006935    0.019368
     0.005473    0.016932
     0.004203    0.014593
     0.003109    0.012335
     0.002185    0.010151
     0.001426    0.008040
     0.000824    0.006004
     0.000379    0.004044
     0.000101    0.002156
    -0.000003    0.000322
     0.000080   -0.001485
     0.000346   -0.003284
     0.000794   -0.005088
     0.001432   -0.006904
     0.002274   -0.008732
     0.003344   -0.010562
     0.004668   -0.012368
     0.006267   -0.014114
     0.008145   -0.015787
     0.010295   -0.017386
     0.012705   -0.018919
     0.015366   -0.020412
     0.018313   -0.021889
     0.021595   -0.023360
     0.025268   -0.024817
     0.029398   -0.026253
     0.034055   -0.027658
     0.039313   -0.029024
     0.045243   -0.030348
     0.051905   -0.031643
     0.059369   -0.032934
     0.067745   -0.034213
     0.077136   -0.035457
     0.087600   -0.036644
     0.099157   -0.037755
     0.111790   -0.038778
     0.125398   -0.039701
     0.139823   -0.040531
     0.154907   -0.041275
     0.170502   -0.041938
     0.186477   -0.042528
     0.202728   -0.043057
     0.219161   -0.043538
     0.235678   -0.043978
     0.252206   -0.044372
     0.268701   -0.044713
     0.285137   -0.044989
     0.301501   -0.045189
     0.317792   -0.045300
     0.334034   -0.045310
     0.350274   -0.045215
     0.366552   -0.045017
     0.382900   -0.044727
     0.399337   -0.044354
     0.415863   -0.043914
     0.432458   -0.043418
     0.449103   -0.042876
     0.465766   -0.042294
     0.482399   -0.041671
     0.498996   -0.040995
     0.515580   -0.040262
     0.532163   -0.039472
     0.548734   -0.038632
     0.565269   -0.037741
     0.581751   -0.036787
     0.598206   -0.035757
     0.614699   -0.034646
     0.631267   -0.033466
     0.647897   -0.032230
     0.664607   -0.030941
     0.681424   -0.029616
     0.698303   -0.028278
     0.715176   -0.026948
     0.732024   -0.025630
     0.748834   -0.024311
     0.765559   -0.022978
     0.782160   -0.021618
     0.798628   -0.020210
     0.814994   -0.018732
     0.831305   -0.017173
     0.847607   -0.015527
     0.863914   -0.013804
     0.880210   -0.012016
     0.896456   -0.010183
     0.912552   -0.008344
     0.928270   -0.006560
     0.943344   -0.004896
     0.957584   -0.003400
     0.970803   -0.002132
     0.982806   -0.001131
     0.993522   -0.000384
     1.000000    0.000000
